Time - Plot 0	Amplitude - Plot 0	Time - Plot 1	Amplitude - Plot 1	Time - Plot 2	Amplitude - Plot 2	
25946	-1.3057	25946	0.184296	25946	1.12191	
25947	-1.26132	25947	0.0730897	25947	1.18533	
25948	-1.20476	25948	-0.0368674	25948	1.24376	
25949	-1.14413	25949	-0.148074	25949	1.29125	
25950	-1.07412	25950	-0.256782	25950	1.33343	
25951	-0.999744	25951	-0.365802	25951	1.36687	
25952	-0.918176	25952	-0.472323	25952	1.39061	
25953	-0.830982	25953	-0.575408	25953	1.40655	
25954	-0.739726	25954	-0.675681	25954	1.41248	
25955	-0.640344	25955	-0.769394	25955	1.41373	
25956	-0.54065	25956	-0.861546	25956	1.4028	
25957	-0.436268	25957	-0.945888	25957	1.38343	
25958	-0.330948	25958	-1.02648	25958	1.35624	
25959	-0.22094	25959	-1.09864	25959	1.32094	
25960	-0.108745	25960	-1.16424	25960	1.27813	
25961	-0.000925219	25961	-1.22547	25961	1.22408	
25962	0.110645	25962	-1.2767	25962	1.16565	
25963	0.22159	25963	-1.32074	25963	1.0991	
25964	0.331285	25964	-1.3551	25964	1.02692	
25965	0.436918	25965	-1.38322	25965	0.946314	
25966	0.5413	25966	-1.40196	25966	0.860704	
25967	0.642869	25967	-1.41196	25967	0.771344	
25968	0.738188	25968	-1.41446	25968	0.674174	
25969	0.830382	25969	-1.40633	25969	0.575441	
25970	0.916951	25970	-1.39165	25970	0.470772	
25971	1.00039	25971	-1.36541	25971	0.366727	
25972	1.07634	25972	-1.33292	25972	0.258621	
25973	1.14447	25973	-1.292	25973	0.148015	
25974	1.20666	25974	-1.24265	25974	0.0377221	
25975	1.25979	25975	-1.18548	25975	-0.073821	
25976	1.30698	25976	-1.12238	25976	-0.184114	
25977	1.34417	25977	-1.0521	25977	-0.294408	
25978	1.37511	25978	-0.97244	25978	-0.400951	
25979	1.39698	25979	-0.889972	25979	-0.506558	
25980	1.41074	25980	-0.800945	25980	-0.608103	
25981	1.41417	25981	-0.707544	25981	-0.707148	
25982	1.40949	25982	-0.608832	25982	-0.800882	
25983	1.39698	25983	-0.506372	25983	-0.888991	
25984	1.37323	25984	-0.402662	25984	-0.974289	
25985	1.34479	25985	-0.294267	25985	-1.05053	
25986	1.30635	25986	-0.184622	25986	-1.12145	
25987	1.25979	25987	-0.0737281	25987	-1.18519	
25988	1.2051	25988	0.0362291	25988	-1.2433	
25989	1.14509	25989	0.147748	25989	-1.2908	
25990	1.07634	25990	0.25833	25990	-1.33173	
25991	0.999769	25991	0.365476	25991	-1.36547	
25992	0.917576	25992	0.47106	25992	-1.39078	
25993	0.830695	25993	0.574457	25993	-1.40703	
25994	0.739751	25994	0.675355	25994	-1.41265	
25995	0.641932	25995	0.770006	25995	-1.41265	
25996	0.541612	25996	0.860908	25996	-1.4014	
25997	0.436918	25997	0.945563	25997	-1.38328	
25998	0.330035	25998	1.02584	25998	-1.35485	
25999	0.221903	25999	1.09925	25999	-1.31923	
26000	0.11002	26000	1.16392	26000	-1.27674	
26001	1.23455E-5	26001	1.2242	26001	-1.22456	
26002	-0.110933	26002	1.27637	26002	-1.16519	
26003	-0.220003	26003	1.3201	26003	-1.09739	
26004	-0.33001	26004	1.35634	26004	-1.02553	
26005	-0.437205	26005	1.38289	26005	-0.946169	
26006	-0.540962	26006	1.40226	26006	-0.860559	
26007	-0.642844	26007	1.41101	26007	-0.770887	
26008	-0.739413	26008	1.41319	26008	-0.674654	
26009	-0.832232	26009	1.40445	26009	-0.575921	
26010	-0.918488	26010	1.3907	26010	-0.470939	
26011	-0.999119	26011	1.36665	26011	-0.365333	
26012	-1.07444	26012	1.33229	26012	-0.256914	
26013	-1.14382	26013	1.29168	26013	-0.146933	
26014	-1.20382	26014	1.24326	26014	-0.0357026	
26015	-1.25976	26015	1.18547	26015	0.0749031	
26016	-1.30726	26016	1.11987	26016	0.183947	
26017	-1.34477	26017	1.05115	26017	0.29424	
26018	-1.37539	26018	0.973052	26018	0.401721	
26019	-1.39602	26019	0.890584	26019	0.508265	
26020	-1.40977	26020	0.800931	26020	0.609185	
26021	-1.41383	26021	0.706281	26021	0.706668	
26022	-1.40883	26022	0.610068	26022	0.801964	
26023	-1.39758	26023	0.505734	26023	0.889136	
26024	-1.37508	26024	0.400775	26024	0.973809	
26025	-1.34508	26025	0.293941	26025	1.05098	
26026	-1.3057	26026	0.184921	26026	1.12253	
26027	-1.2607	26027	0.0740269	26027	1.18627	
26028	-1.20476	26028	-0.0374922	26028	1.24251	
26029	-1.14288	26029	-0.146512	26029	1.29282	
26030	-1.07537	26030	-0.257719	26030	1.3325	
26031	-1.00068	26031	-0.366114	26031	1.36562	
26032	-0.919426	26032	-0.473572	26032	1.3903	
26033	-0.830357	26033	-0.575095	26033	1.40717	
26034	-0.738476	26034	-0.674431	26034	1.41436	
26035	-0.642219	26035	-0.770332	26035	1.41155	
26036	-0.541275	26036	-0.861234	26036	1.40248	
26037	-0.43658	26037	-0.9462	26037	1.3828	
26038	-0.329698	26038	-1.02523	26038	1.35687	
26039	-0.221878	26039	-1.09989	26039	1.32	
26040	-0.111245	26040	-1.16549	26040	1.27657	
26041	0.000637388	26041	-1.22422	26041	1.22533	
26042	0.111583	26042	-1.27638	26042	1.16565	
26043	0.220653	26043	-1.32074	26043	1.0991	
26044	0.33066	26044	-1.35573	26044	1.0263	
26045	0.437855	26045	-1.3829	26045	0.947251	
26046	0.539425	26046	-1.40321	26046	0.859766	
26047	0.641932	26047	-1.41258	26047	0.770719	
26048	0.737876	26048	-1.41446	26048	0.674174	
26049	0.832257	26049	-1.40508	26049	0.576066	
26050	0.918201	26050	-1.39071	26050	0.472021	
26051	1.00008	26051	-1.36572	26051	0.36579	
26052	1.07634	26052	-1.33261	26052	0.258309	
26053	1.14322	26053	-1.29263	26053	0.147078	
26054	1.20572	26054	-1.24327	26054	0.0370972	
26055	1.25947	26055	-1.18611	26055	-0.0735086	
26056	1.3076	26056	-1.12082	26056	-0.183177	
26057	1.34542	26057	-1.05085	26057	-0.293783	
26058	1.3748	26058	-0.973377	26058	-0.401264	
26059	1.39636	26059	-0.890285	26059	-0.50687	
26060	1.41042	26060	-0.800632	26060	-0.60779	
26061	1.41511	26061	-0.707231	26061	-0.70746	
26062	1.40886	26062	-0.609457	26062	-0.800569	
26063	1.39667	26063	-0.506684	26063	-0.889616	
26064	1.37417	26064	-0.401725	26064	-0.973351	
26065	1.34542	26065	-0.294892	26065	-1.05053	
26066	1.30604	26066	-0.185247	26066	-1.12176	
26067	1.25947	26067	-0.0743528	26067	-1.1855	
26068	1.20603	26068	0.037791	26068	-1.24205	
26069	1.14353	26069	0.146811	26069	-1.29236	
26070	1.07477	26070	0.257705	26070	-1.33298	
26071	0.999457	26071	0.365476	26071	-1.36578	
26072	0.918513	26072	0.472309	26072	-1.38922	
26073	0.831007	26073	0.574769	26073	-1.40609	
26074	0.738501	26074	0.674106	26074	-1.41359	
26075	0.642869	26075	0.770318	26075	-1.41109	
26076	0.541612	26076	0.861533	26076	-1.40109	
26077	0.43723	26077	0.94525	26077	-1.38359	
26078	0.32941	26078	1.02459	26078	-1.35641	
26079	0.22159	26079	1.09925	26079	-1.31985	
26080	0.111583	26080	1.16548	26080	-1.27517	
26081	0.000324867	26081	1.22452	26081	-1.22393	
26082	-0.111558	26082	1.27543	26082	-1.16582	
26083	-0.220315	26083	1.3201	26083	-1.09833	
26084	-0.329385	26084	1.35665	26084	-1.02522	
26085	-0.438143	26085	1.38227	26085	-0.946481	
26086	-0.540962	26086	1.40132	26086	-0.861183	
26087	-0.642219	26087	1.41194	26087	-0.769949	
26088	-0.737851	26088	1.41507	26088	-0.673404	
26089	-0.83067	26089	1.40601	26089	-0.574984	
26090	-0.918176	26090	1.39008	26090	-0.471564	
26091	-1.00037	26091	1.36634	26091	-0.365645	
26092	-1.07444	26092	1.3326	26092	-0.256914	
26093	-1.14413	26093	1.29168	26093	-0.147558	
26094	-1.20601	26094	1.24201	26094	-0.0372649	
26095	-1.26039	26095	1.18516	26095	0.0736533	
26096	-1.30601	26096	1.12174	26096	0.184884	
26097	-1.34445	26097	1.05083	26097	0.294552	
26098	-1.37571	26098	0.97274	26098	0.401721	
26099	-1.39571	26099	0.890272	26099	0.507328	
26100	-1.40883	26100	0.801244	26100	0.60981	
26101	-1.41415	26101	0.705968	26101	0.706981	
26102	-1.4104	26102	0.608819	26102	0.801339	
26103	-1.39696	26103	0.506359	26103	0.889136	
26104	-1.37383	26104	0.402649	26104	0.974747	
26105	-1.34508	26105	0.293941	26105	1.05192	
26106	-1.3057	26106	0.184609	26106	1.12222	
26107	-1.25914	26107	0.0740269	26107	1.18752	
26108	-1.20507	26108	-0.0368674	26108	1.24314	
26109	-1.14413	26109	-0.148386	26109	1.29157	
26110	-1.07631	26110	-0.259281	26110	1.33187	
26111	-0.998806	26111	-0.366114	26111	1.36655	
26112	-0.918176	26112	-0.47201	26112	1.39155	
26113	-0.830357	26113	-0.57447	26113	1.40686	
26114	-0.739726	26114	-0.675056	26114	1.41405	
26115	-0.641282	26115	-0.769707	26115	1.41217	
26116	-0.54065	26116	-0.860296	26116	1.40311	
26117	-0.43783	26117	-0.9462	26117	1.38311	
26118	-0.330323	26118	-1.02617	26118	1.35593	
26119	-0.220628	26119	-1.09927	26119	1.32	
26120	-0.11062	26120	-1.16549	26120	1.27719	
26121	-0.000300176	26121	-1.22484	26121	1.2247	
26122	0.110957	26122	-1.27576	26122	1.16596	
26123	0.222215	26123	-1.32012	26123	1.09972	
26124	0.329723	26124	-1.35573	26124	1.02536	
26125	0.436292	26125	-1.38384	26125	0.946002	
26126	0.539737	26126	-1.40321	26126	0.860391	
26127	0.643494	26127	-1.41102	26127	0.770719	
26128	0.739126	26128	-1.41352	26128	0.674799	
26129	0.831007	26129	-1.40633	26129	0.575128	
26130	0.917888	26130	-1.39071	26130	0.472334	
26131	0.999144	26131	-1.36604	26131	0.365477	
26132	1.07571	26132	-1.33292	26132	0.257996	
26133	1.14228	26133	-1.29356	26133	0.146453	
26134	1.20572	26134	-1.24265	26134	0.0374096	
26135	1.26166	26135	-1.18486	26135	-0.0728837	
26136	1.30729	26136	-1.12144	26136	-0.184427	
26137	1.34448	26137	-1.05147	26137	-0.29347	
26138	1.3748	26138	-0.973065	26138	-0.401264	
26139	1.39698	26139	-0.889348	26139	-0.505621	
26140	1.4098	26140	-0.801569	26140	-0.60904	
26141	1.41417	26141	-0.707231	26141	-0.707148	
26142	1.40917	26142	-0.609144	26142	-0.801194	
26143	1.39792	26143	-0.505747	26143	-0.888679	
26144	1.37511	26144	-0.401725	26144	-0.973039	
26145	1.34479	26145	-0.293955	26145	-1.05053	
26146	1.30667	26146	-0.184622	26146	-1.12114	
26147	1.26072	26147	-0.0737281	26147	-1.18488	
26148	1.20635	26148	0.0374786	26148	-1.24205	
26149	1.14228	26149	0.145874	26149	-1.2933	
26150	1.07477	26150	0.257705	26150	-1.33298	
26151	1.00039	26151	0.366101	26151	-1.36547	
26152	0.919139	26152	0.472309	26152	-1.38984	
26153	0.831007	26153	0.574457	26153	-1.40671	
26154	0.738813	26154	0.674418	26154	-1.41327	
26155	0.642557	26155	0.770318	26155	-1.4114	
26156	0.540675	26156	0.860596	26156	-1.40171	
26157	0.436292	26157	0.945875	26157	-1.38359	
26158	0.32941	26158	1.02553	26158	-1.3561	
26159	0.222215	26159	1.09925	26159	-1.31892	
26160	0.111583	26160	1.16548	26160	-1.27549	
26161	0.000324867	26161	1.22483	26161	-1.22393	
26162	-0.11062	26162	1.27668	26162	-1.16457	
26163	-0.221878	26163	1.3201	26163	-1.09864	
26164	-0.330323	26164	1.3554	26164	-1.02584	
26165	-0.438455	26165	1.38164	26165	-0.947418	
26166	-0.54065	26166	1.40164	26166	-0.859621	
26167	-0.641594	26167	1.41257	26167	-0.769949	
26168	-0.738788	26168	1.41319	26168	-0.674341	
26169	-0.830982	26169	1.40663	26169	-0.574671	
26170	-0.918488	26170	1.38945	26170	-0.471564	
26171	-0.999744	26171	1.36571	26171	-0.365333	
26172	-1.07506	26172	1.3326	26172	-0.258476	
26173	-1.1435	26173	1.2923	26173	-0.147246	
26174	-1.2057	26174	1.24263	26174	-0.03664	
26175	-1.25945	26175	1.18547	26175	0.0742782	
26176	-1.30664	26176	1.12143	26176	0.184884	
26177	-1.34445	26177	1.05021	26177	0.293927	
26178	-1.37477	26178	0.973677	26178	0.402658	
26179	-1.3979	26179	0.88871	26179	0.506078	
26180	-1.40946	26180	0.800931	26180	0.609497	
26181	-1.41415	26181	0.706281	26181	0.707293	
26182	-1.40852	26182	0.609443	26182	0.801964	
26183	-1.39665	26183	0.506359	26183	0.889761	
26184	-1.37414	26184	0.401712	26184	0.973497	
26185	-1.34414	26185	0.294878	26185	1.05255	
26186	-1.30633	26186	0.183672	26186	1.12097	
26187	-1.25976	26187	0.0740269	26187	1.18627	
26188	-1.20601	26188	-0.0374922	26188	1.2422	
26189	-1.14444	26189	-0.148386	26189	1.29188	
26190	-1.07537	26190	-0.258031	26190	1.33343	
26191	-1.00006	26191	-0.365489	26191	1.36624	
26192	-0.917551	26192	-0.47201	26192	1.39155	
26193	-0.829107	26193	-0.574158	26193	1.40748	
26194	-0.739413	26194	-0.675056	26194	1.41373	
26195	-0.642844	26195	-0.771893	26195	1.41092	
26196	-0.54065	26196	-0.860609	26196	1.40217	
26197	-0.43658	26197	-0.9462	26197	1.38311	
26198	-0.329385	26198	-1.02523	26198	1.35624	
26199	-0.221565	26199	-1.09958	26199	1.32031	
26200	-0.11062	26200	-1.16549	26200	1.27594	
26201	0.00094991	26201	-1.22422	26201	1.22533	
26202	0.109707	26202	-1.27701	26202	1.16503	
26203	0.221278	26203	-1.32074	26203	1.0991	
26204	0.330348	26204	-1.35573	26204	1.02568	
26205	0.436918	26205	-1.3829	26205	0.946626	
26206	0.540362	26206	-1.40227	26206	0.861016	
26207	0.641932	26207	-1.41196	26207	0.770095	
26208	0.740064	26208	-1.41258	26208	0.675424	
26209	0.830695	26209	-1.40696	26209	0.575128	
26210	0.917888	26210	-1.39103	26210	0.472021	
26211	0.999457	26211	-1.36666	26211	0.36579	
26212	1.07571	26212	-1.3323	26212	0.257996	
26213	1.14478	26213	-1.29138	26213	0.148328	
26214	1.2051	26214	-1.24202	26214	0.0377221	
26215	1.2601	26215	-1.18611	26215	-0.0735086	
26216	1.3076	26216	-1.12144	26216	-0.184427	
26217	1.34511	26217	-1.05147	26217	-0.294095	
26218	1.37355	26218	-0.974939	26218	-0.402514	
26219	1.39761	26219	-0.889348	26219	-0.505933	
26220	1.41074	26220	-0.80032	26220	-0.60779	
26221	1.41417	26221	-0.707231	26221	-0.707148	
26222	1.40824	26222	-0.610082	26222	-0.802131	
26223	1.39667	26223	-0.506372	26223	-0.888679	
26224	1.37573	26224	-0.400788	26224	-0.972414	
26225	1.34448	26225	-0.295204	26225	-1.05084	
26226	1.30604	26226	-0.184622	26226	-1.12176	
26227	1.25947	26227	-0.0737281	26227	-1.18613	
26228	1.20635	26228	0.037791	26228	-1.24205	
26229	1.14384	26229	0.147436	26229	-1.29142	
26230	1.07509	26230	0.257393	26230	-1.33298	
26231	1.00102	26231	0.366725	26231	-1.36547	
26232	0.918201	26232	0.471372	26232	-1.39015	
26233	0.83132	26233	0.575082	26233	-1.40609	
26234	0.737876	26234	0.674418	26234	-1.4139	
26235	0.642244	26235	0.770631	26235	-1.41077	
26236	0.540987	26236	0.860908	26236	-1.40109	
26237	0.437543	26237	0.945875	26237	-1.38203	
26238	0.330348	26238	1.02553	26238	-1.35578	
26239	0.221903	26239	1.09894	26239	-1.31923	
26240	0.11127	26240	1.16516	26240	-1.2758	
26241	-0.000612698	26241	1.22389	26241	-1.22518	
26242	-0.11062	26242	1.27668	26242	-1.16488	
26243	-0.22094	26243	1.3201	26243	-1.09833	
26244	-0.329385	26244	1.35634	26244	-1.02459	
26245	-0.437205	26245	1.38227	26245	-0.946481	
26246	-0.540025	26246	1.40101	26246	-0.859934	
26247	-0.641282	26247	1.41288	26247	-0.769012	
26248	-0.739413	26248	1.41257	26248	-0.674966	
26249	-0.831607	26249	1.40538	26249	-0.575608	
26250	-0.918488	26250	1.39008	26250	-0.471877	
26251	-0.998806	26251	1.36665	26251	-0.364083	
26252	-1.07569	26252	1.33229	26252	-0.257227	
26253	-1.1435	26253	1.29074	26253	-0.146933	
26254	-1.20538	26254	1.24326	26254	-0.03664	
26255	-1.25914	26255	1.18578	26255	0.0742782	
26256	-1.30695	26256	1.12112	26256	0.184884	
26257	-1.34508	26257	1.05021	26257	0.293303	
26258	-1.37446	26258	0.973052	26258	0.402346	
26259	-1.39665	26259	0.889647	26259	0.507328	
26260	-1.40915	26260	0.800931	26260	0.609497	
26261	-1.41446	26261	0.706593	26261	0.706981	
26262	-1.40946	26262	0.608819	26262	0.801027	
26263	-1.39633	26263	0.507608	26263	0.890699	
26264	-1.37539	26264	0.400775	26264	0.972247	
26265	-1.34602	26265	0.293316	26265	1.05098	
26266	-1.30726	26266	0.183047	26266	1.12066	
26267	-1.25945	26267	0.0743393	26267	1.18627	
26268	-1.2057	26268	-0.0378046	26268	1.24345	
26269	-1.14382	26269	-0.147762	26269	1.29125	
26270	-1.07412	26270	-0.257407	26270	1.33406	
26271	-1.00037	26271	-0.366427	26271	1.36562	
26272	-0.919426	26272	-0.472323	26272	1.39092	
26273	-0.831607	26273	-0.576032	26273	1.40623	
26274	-0.738163	26274	-0.673807	26274	1.41405	
26275	-0.641282	26275	-0.770019	26275	1.41311	
26276	-0.541275	26276	-0.861234	26276	1.40217	
26277	-0.43783	26277	-0.946513	26277	1.38249	
26278	-0.329385	26278	-1.02554	26278	1.35593	
26279	-0.221565	26279	-1.09927	26279	1.32062	
26280	-0.111245	26280	-1.16643	26280	1.27626	
26281	0.000324867	26281	-1.22484	26281	1.22564	
26282	0.111895	26282	-1.27576	26282	1.16596	
26283	0.221903	26283	-1.32012	26283	1.09941	
26284	0.330035	26284	-1.35604	26284	1.0263	
26285	0.436918	26285	-1.38353	26285	0.946314	
26286	0.542237	26286	-1.40102	26286	0.861329	
26287	0.642244	26287	-1.41258	26287	0.769782	
26288	0.739126	26288	-1.41414	26288	0.675111	
26289	0.831007	26289	-1.40696	26289	0.574816	
26290	0.919139	26290	-1.38978	26290	0.473271	
26291	0.999769	26291	-1.36604	26291	0.366102	
26292	1.0754	26292	-1.33324	26292	0.258309	
26293	1.14384	26293	-1.292	26293	0.148328	
26294	1.20572	26294	-1.24296	26294	0.0367847	
26295	1.26198	26295	-1.18454	26295	-0.0725712	
26296	1.30448	26296	-1.12269	26296	-0.185989	
26297	1.34354	26297	-1.05178	26297	-0.294095	
26298	1.37573	26298	-0.972753	26298	-0.400639	
26299	1.39761	26299	-0.889035	26299	-0.505933	
26300	1.40949	26300	-0.801569	26300	-0.60904	
26301	1.41355	26301	-0.707231	26301	-0.706523	
26302	1.41042	26302	-0.608832	26302	-0.800569	
26303	1.39605	26303	-0.507309	26303	-0.890241	
26304	1.37448	26304	-0.401725	26304	-0.973351	
26305	1.34448	26305	-0.293955	26305	-1.05021	
26306	1.30698	26306	-0.18431	26306	-1.12114	
26307	1.25979	26307	-0.0749776	26307	-1.18644	
26308	1.20603	26308	0.0368539	26308	-1.24268	
26309	1.14384	26309	0.147436	26309	-1.29111	
26310	1.07446	26310	0.256143	26310	-1.33423	
26311	1.00008	26311	0.366101	26311	-1.36578	
26312	0.916638	26312	0.470435	26312	-1.39078	
26313	0.831945	26313	0.575707	26313	-1.40546	
26314	0.739751	26314	0.675355	26314	-1.41359	
26315	0.642869	26315	0.770006	26315	-1.4114	
26316	0.540362	26316	0.860908	26316	-1.40203	
26317	0.436605	26317	0.945875	26317	-1.38328	
26318	0.330348	26318	1.02616	26318	-1.35578	
26319	0.220965	26319	1.09769	26319	-1.32079	
26320	0.110645	26320	1.16548	26320	-1.27611	
26321	1.23455E-5	26321	1.22452	26321	-1.22456	
26322	-0.109995	26322	1.277	26322	-1.16488	
26323	-0.221253	26323	1.3201	26323	-1.09864	
26324	-0.32876	26324	1.35603	26324	-1.02459	
26325	-0.43658	26325	1.38352	26325	-0.945544	
26326	-0.541275	26326	1.40101	26326	-0.861183	
26327	-0.641907	26327	1.41194	26327	-0.770574	
26328	-0.738788	26328	1.41351	26328	-0.674966	
26329	-0.830357	26329	1.40663	26329	-0.574359	
26330	-0.917863	26330	1.39008	26330	-0.471564	
26331	-0.999119	26331	1.36602	26331	-0.365645	
26332	-1.07444	26332	1.33385	26332	-0.256602	
26333	-1.14444	26333	1.29168	26333	-0.147871	
26334	-1.20538	26334	1.24295	26334	-0.0363275	
26335	-1.26039	26335	1.18453	26335	0.0736533	
26336	-1.30539	26336	1.12237	26336	0.185196	
26337	-1.34539	26337	1.05021	26337	0.293615	
26338	-1.37508	26338	0.973052	26338	0.401409	
26339	-1.39571	26339	0.889959	26339	0.507953	
26340	-1.40883	26340	0.800619	26340	0.60856	
26341	-1.41383	26341	0.705968	26341	0.707918	
26342	-1.41102	26342	0.607569	26342	0.800714	
26343	-1.39571	26343	0.506983	26343	0.891011	
26344	-1.37446	26344	0.401087	26344	0.973497	
26345	-1.34477	26345	0.293629	26345	1.05098	
26346	-1.30695	26346	0.184296	26346	1.1216	
26347	-1.25882	26347	0.0740269	26347	1.18658	
26348	-1.20507	26348	-0.0368674	26348	1.24314	
26349	-1.14444	26349	-0.149011	26349	1.29125	
26350	-1.07475	26350	-0.257094	26350	1.33375	
26351	-0.999119	26351	-0.365489	26351	1.36687	
26352	-0.917863	26352	-0.471698	26352	1.39061	
26353	-0.83317	26353	-0.576345	26353	1.40655	
26354	-0.739413	26354	-0.675056	26354	1.41373	
26355	-0.640969	26355	-0.769707	26355	1.4128	
26356	-0.5419	26356	-0.862171	26356	1.40123	
26357	-0.437205	26357	-0.946825	26357	1.38405	
26358	-0.33001	26358	-1.02586	26358	1.35593	
26359	-0.220003	26359	-1.09864	26359	1.32094	
26360	-0.111245	26360	-1.1658	26360	1.27688	
26361	0.000324867	26361	-1.22453	26361	1.2247	
26362	0.111895	26362	-1.27545	26362	1.16659	
26363	0.22159	26363	-1.32105	26363	1.0991	
26364	0.329723	26364	-1.35698	26364	1.02599	
26365	0.43598	26365	-1.38415	26365	0.945377	
26366	0.54255	26366	-1.40134	26366	0.861954	
26367	0.643182	26367	-1.41196	26367	0.771032	
26368	0.739439	26368	-1.41383	26368	0.674486	
26369	0.830695	26369	-1.40665	26369	0.575128	
26370	0.918513	26370	-1.3904	26370	0.472021	
26371	0.999769	26371	-1.36572	26371	0.366415	
26372	1.07384	26372	-1.3348	26372	0.257059	
26373	1.14415	26373	-1.292	26373	0.14864	
26374	1.20572	26374	-1.24202	26374	0.0377221	
26375	1.26072	26375	-1.18517	26375	-0.0731961	
26376	1.30573	26376	-1.12207	26376	-0.184739	
26377	1.34542	26377	-1.05053	26377	-0.29347	
26378	1.37542	26378	-0.973065	26378	-0.400639	
26379	1.39573	26379	-0.890597	26379	-0.507495	
